M- 9.2Pa 10W 25-50
Integration time: 1000 ms
Average: 20 scans
Nr of pixels used for smoothing: 0
Data measured with spectrometer serial number: 0501039S2
Wave   ;Sample
[nm]   ;[counts]
200,00;-164,2100
201,00;-4,4798
202,00;-90,1047
203,00;-180,8378
204,00;-17,9195
205,00;-124,5094
206,00;-175,1716
207,00;-71,8182
208,00;-28,8530
209,00;96,7036
210,00;-151,1374
211,00;-30,8373
212,00;-119,5984
213,00;-37,6097
214,00;-65,7082
215,00;-54,9043
216,00;-82,8664
217,00;-109,0578
218,00;-124,8799
219,00;-107,6568
220,00;360,1743
221,00;23,9975
222,00;49,5887
223,00;-168,4414
224,00;-165,2025
225,00;70,9036
226,00;-40,4497
227,00;-64,8236
228,00;119,4771
229,00;-120,6672
230,00;8,9030
231,00;-75,3896
232,00;-21,6775
233,00;50,1918
234,00;-93,1936
235,00;-35,1051
236,00;-99,7963
237,00;-47,9103
238,00;17,7915
239,00;-3,2083
240,00;-175,7677
241,00;-160,8663
242,00;-70,4916
243,00;-149,9589
244,00;141,4101
245,00;36,8518
246,00;-119,7083
247,00;-164,4627
248,00;4,2371
249,00;24,7775
250,00;-31,9517
251,00;131,6461
252,00;-129,0709
253,00;24,5684
254,00;-251,3000
255,00;-157,1836
256,00;-123,0695
257,00;51,0111
258,00;-57,7640
259,00;2,0353
260,00;-119,0766
261,00;-3,9536
262,00;48,2804
263,00;-146,5732
264,00;56,2711
265,00;41,1279
266,00;-7,8809
267,00;187,1212
268,00;-78,1573
269,00;125,9335
270,00;-89,1332
271,00;4,3456
272,00;-51,9726
273,00;-42,6743
274,00;-56,9255
275,00;70,0490
276,00;-25,7103
277,00;-110,2188
278,00;-82,0629
279,00;-94,5638
280,00;-78,5765
281,00;-8,0303
282,00;-7,9846
283,00;-6,9452
284,00;-104,7992
285,00;-185,9457
286,00;-37,8690
287,00;-70,3761
288,00;-86,6756
289,00;-88,4031
290,00;-63,3942
291,00;-116,2994
292,00;-116,0827
293,00;-16,8939
294,00;-14,4951
295,00;6,6103
296,00;-113,7493
297,00;-118,8713
298,00;-126,5823
299,00;-110,4338
300,00;-67,0907
301,00;34,4770
302,00;-98,3599
303,00;-85,8001
304,00;-79,3942
305,00;-100,9455
306,00;-55,4635
307,00;58,5842
308,00;23,0531
309,00;-75,8280
310,00;-130,8181
311,00;-22,8209
312,00;-49,2120
313,00;-11,1325
314,00;-40,4629
315,00;-105,8211
316,00;28,9986
317,00;-167,2992
318,00;-98,7666
319,00;15,8808
320,00;-109,7237
321,00;-26,4884
322,00;-107,6456
323,00;-165,1167
324,00;-32,9402
325,00;83,3193
326,00;-42,0773
327,00;-141,7253
328,00;-74,5480
329,00;-10,4871
330,00;-77,8619
331,00;-102,8113
332,00;2,3565
333,00;-51,8406
334,00;-34,2945
335,00;-136,2965
336,00;-91,5068
337,00;70,4243
338,00;-27,5323
339,00;-30,3294
340,00;-36,3232
341,00;-107,2844
342,00;-72,0548
343,00;10,3460
344,00;-27,6891
345,00;-96,3541
346,00;183,2379
347,00;-98,9708
348,00;-87,6992
349,00;-153,7227
350,00;-69,4463
351,00;-3,9843
352,00;-11,5872
353,00;-96,6818
354,00;73,4783
355,00;-176,1445
356,00;-20,3963
357,00;-60,0939
358,00;89,5236
359,00;21,3012
360,00;-65,7060
361,00;-150,4640
362,00;-151,8952
363,00;-134,9764
364,00;-136,2978
365,00;-17,5599
366,00;-28,4514
367,00;136,6614
368,00;-109,5840
369,00;10,4511
370,00;-15,3958
371,00;-33,1266
372,00;-149,3757
373,00;-83,5538
374,00;-127,4535
375,00;35,3381
376,00;-58,2055
377,00;39,6642
378,00;-125,2642
379,00;44,3448
380,00;97,5530
381,00;-104,4546
382,00;4,4111
383,00;-89,4854
384,00;-14,7165
385,00;-58,4002
386,00;69,9514
387,00;-106,7887
388,00;-95,7125
389,00;-92,3319
390,00;25,3547
391,00;124,6935
392,00;58,0084
393,00;-142,9913
394,00;-101,1200
395,00;31,6777
396,00;50,7775
397,00;-130,0952
398,00;-69,5257
399,00;-16,3825
400,00;-95,7500
401,00;-71,0266
402,00;-150,1790
403,00;-110,2514
404,00;47,9791
405,00;156,0586
406,00;103,9240
407,00;-84,4077
408,00;-86,4068
409,00;26,5780
410,00;-112,2640
411,00;11,6303
412,00;53,8663
413,00;-24,8136
414,00;-77,5852
415,00;0,6796
416,00;259,4395
417,00;-32,1633
418,00;142,9056
419,00;366,2336
420,00;557,9083
421,00;-166,2003
422,00;-34,6273
423,00;4,5195
424,00;56,0738
425,00;209,1112
426,00;644,3512
427,00;260,0515
428,00;75,4912
429,00;34,6707
430,00;178,1686
431,00;146,9539
432,00;-61,1994
433,00;149,2090
434,00;26,5088
435,00;-128,0143
436,00;-3,0734
437,00;140,9514
438,00;50,7609
439,00;114,7815
440,00;-33,1294
441,00;-69,5395
442,00;-62,3819
443,00;109,9728
444,00;31,4938
445,00;139,2706
446,00;-34,0153
447,00;-77,0679
448,00;-142,9431
449,00;-38,1893
450,00;51,8547
451,00;314,0004
452,00;-35,0280
453,00;-14,2826
454,00;-57,1468
455,00;-88,2010
456,00;-69,5757
457,00;25,9631
458,00;-20,2164
459,00;-73,1049
460,00;-106,9082
461,00;-45,0717
462,00;-107,9674
463,00;48,2221
464,00;-38,6472
465,00;182,9981
466,00;41,7800
467,00;10,3561
468,00;-106,2881
469,00;-2,2130
470,00;-86,3884
471,00;-29,5300
472,00;-46,8108
473,00;32,6686
474,00;-110,2041
475,00;57,4548
476,00;-5,4147
477,00;-43,9104
478,00;12,2988
479,00;28,9143
480,00;46,8650
481,00;34,5861
482,00;-80,0659
483,00;-29,4771
484,00;-11,4996
485,00;-100,3891
486,00;-40,0482
487,00;-4,8673
488,00;13,4719
489,00;34,4749
490,00;-136,4973
491,00;169,1992
492,00;37,9917
493,00;-79,7157
494,00;106,3768
495,00;78,3330
496,00;12,8695
497,00;39,6155
498,00;165,5388
499,00;66,0108
500,00;-44,7913
501,00;40,7846
502,00;-41,4067
503,00;-54,8614
504,00;-8,7309
505,00;97,8188
506,00;-31,4918
507,00;-23,6573
508,00;-40,1016
509,00;58,2150
510,00;-5,3645
511,00;-131,8648
512,00;22,5011
513,00;-39,4237
514,00;20,8944
515,00;-31,8373
516,00;268,6495
517,00;-42,0006
518,00;0,3652
519,00;71,5954
520,00;-107,2121
521,00;69,3549
522,00;152,1317
523,00;213,6239
524,00;165,0685
525,00;396,1004
526,00;361,0246
527,00;230,9197
528,00;273,8784
529,00;156,9599
530,00;221,0422
531,00;28,9283
532,00;-75,0901
533,00;47,3065
534,00;-80,8025
535,00;-32,3536
536,00;7,2357
537,00;7,9273
538,00;34,8365
539,00;-92,6027
540,00;-171,3572
541,00;-121,2613
542,00;89,5275
543,00;67,4962
544,00;234,9116
545,00;149,1023
546,00;-9,4925
547,00;-86,7927
548,00;87,2981
549,00;40,9052
550,00;185,1953
551,00;1,2652
552,00;43,4645
553,00;270,0453
554,00;5,1657
555,00;230,8182
556,00;377,3435
557,00;463,7373
558,00;806,1238
559,00;858,0753
560,00;926,1129
561,00;748,3855
562,00;611,6007
563,00;241,2536
564,00;61,2266
565,00;59,0869
566,00;-15,1713
567,00;93,5028
568,00;181,5776
569,00;-42,3717
570,00;46,5747
571,00;136,4790
572,00;69,2587
573,00;6,9416
574,00;176,4636
575,00;63,7590
576,00;-80,1255
577,00;-7,3814
578,00;-68,5847
579,00;8,4427
580,00;114,1895
581,00;174,4231
582,00;76,3119
583,00;19,2101
584,00;59,9045
585,00;44,8840
586,00;324,4185
587,00;145,5506
588,00;186,1866
589,00;201,2859
590,00;141,5984
591,00;288,3035
592,00;71,7433
593,00;149,5696
594,00;47,8737
595,00;122,5026
596,00;254,6163
597,00;521,4143
598,00;355,7796
599,00;404,8168
600,00;223,7719
601,00;204,1293
602,00;241,0682
603,00;539,8024
604,00;237,0401
605,00;304,3647
606,00;44,2328
607,00;-69,4992
608,00;15,7621
609,00;-80,5520
610,00;-42,1809
611,00;50,3866
612,00;-14,3969
613,00;-44,0782
614,00;-36,8533
615,00;-17,8682
616,00;58,7295
617,00;-1,3980
618,00;146,3212
619,00;-12,0861
620,00;-57,4409
621,00;97,8675
622,00;6,5971
623,00;0,5234
624,00;-197,3964
625,00;-117,5681
626,00;10,3825
627,00;122,4837
628,00;-25,2968
629,00;-36,6468
630,00;-26,6514
631,00;-8,2745
632,00;44,4461
633,00;2,7482
634,00;96,3773
635,00;252,7206
636,00;340,8681
637,00;81,6604
638,00;145,7042
639,00;84,8094
640,00;51,3611
641,00;198,9965
642,00;156,8965
643,00;77,1562
644,00;-70,9452
645,00;115,2896
646,00;23,4751
647,00;20,0796
648,00;-172,6653
649,00;98,5283
650,00;-72,0913
651,00;-74,8081
652,00;-34,2411
653,00;88,3529
654,00;14,8255
655,00;-139,9697
656,00;-103,6488
657,00;54,6661
658,00;65,6422
659,00;146,0216
660,00;117,4751
661,00;-41,2436
662,00;-33,2982
663,00;-34,9778
664,00;-25,2863
665,00;-64,8788
666,00;45,6118
667,00;15,0776
668,00;180,8006
669,00;-36,3928
670,00;261,2019
671,00;-66,9670
672,00;-91,1468
673,00;-54,5606
674,00;-2,4957
675,00;235,5081
676,00;40,0124
677,00;162,4368
678,00;27,8590
679,00;70,0391
680,00;84,1582
681,00;76,7938
682,00;-39,4776
683,00;118,4757
684,00;154,8076
685,00;77,0812
686,00;-31,6209
687,00;55,6563
688,00;-86,4000
689,00;-113,7293
690,00;-15,6529
691,00;-84,6570
692,00;107,5013
693,00;36,6653
694,00;56,5725
695,00;-32,4626
696,00;250,0354
697,00;131,7207
698,00;84,0246
699,00;12,0033
700,00;50,0302
701,00;29,6481
702,00;-71,5867
703,00;149,8757
704,00;-30,0730
705,00;43,8759
706,00;59,5249
707,00;290,3539
708,00;-44,0801
709,00;92,0866
710,00;257,9106
711,00;-101,9156
712,00;14,0569
713,00;-145,3068
714,00;24,3762
715,00;60,4479
716,00;-28,6034
717,00;-64,1219
718,00;-31,5899
719,00;134,6886
720,00;21,2736
721,00;67,4039
722,00;-157,5401
723,00;-41,8659
724,00;-40,0938
725,00;-17,0937
726,00;11,6201
727,00;124,0064
728,00;96,2569
729,00;-35,4444
730,00;-130,7400
731,00;6,3391
732,00;-130,3259
733,00;-84,9081
734,00;101,1847
735,00;25,1472
736,00;173,7243
737,00;242,8382
738,00;539,3673
739,00;245,4664
740,00;17,7352
741,00;241,2563
742,00;158,9629
743,00;82,7045
744,00;460,0750
745,00;93,2924
746,00;37,2460
747,00;26,4392
748,00;-72,4195
749,00;-39,4469
750,00;1896,3270
751,00;1638,3900
752,00;425,1749
753,00;47,5282
754,00;-5,0311
755,00;1,3465
756,00;-20,3214
757,00;-19,4478
758,00;-217,6614
759,00;-86,9849
760,00;155,2363
761,00;210,6521
762,00;-33,7078
763,00;1001,6200
764,00;596,0964
765,00;-106,8792
766,00;4,2406
767,00;-111,6388
768,00;-119,7991
769,00;-66,4971
770,00;-81,2362
771,00;-87,1505
772,00;251,1227
773,00;137,4995
774,00;-34,2343
775,00;-101,1323
776,00;86,5034
777,00;2413,2640
778,00;974,9925
779,00;-12,7678
780,00;7,5225
781,00;-90,2381
782,00;-88,7408
783,00;41,1296
784,00;82,7037
785,00;-139,3523
786,00;-109,6158
787,00;-11,5571
788,00;-17,3544
789,00;-49,2573
790,00;-50,2343
791,00;-118,9921
792,00;-97,0477
793,00;-83,5587
794,00;173,5545
795,00;179,7713
796,00;1,7400
797,00;20,7879
798,00;-43,9119
799,00;-89,2670
800,00;203,4019
801,00;239,3141
802,00;92,6193
803,00;-74,4166
804,00;-160,4937
805,00;-5,1400
806,00;-162,0367
807,00;73,2890
808,00;-76,9445
809,00;-49,5067
810,00;369,6391
811,00;846,8097
812,00;658,2088
813,00;-86,9681
814,00;-5,2361
815,00;-86,7480
816,00;-103,1906
817,00;19,4328
818,00;-74,3405
819,00;-33,3042
820,00;-66,2529
821,00;19,8779
822,00;-43,6028
823,00;-167,3960
824,00;-90,6151
825,00;-105,0534
826,00;127,2053
827,00;-34,2656
828,00;-75,7402
829,00;-71,4294
830,00;-148,1441
831,00;30,8314
832,00;-205,5964
833,00;-64,0411
834,00;-127,3696
835,00;-119,4296
836,00;-9,6201
837,00;44,8677
838,00;-23,0227
839,00;68,0999
840,00;116,3076
841,00;202,4092
842,00;314,5825
843,00;234,2507
844,00;203,1103
845,00;380,0803
846,00;-43,6144
847,00;-79,5222
848,00;5,5068
849,00;-153,4248
850,00;-153,7011
851,00;-96,6578
852,00;32,9643
853,00;-181,9792
854,00;-34,1469
855,00;-62,8224
856,00;74,4929
857,00;-0,6688
858,00;-108,6406
859,00;17,9659
860,00;45,4945
861,00;-64,2008
862,00;-99,0637
863,00;-21,2316
864,00;-117,6738
865,00;-72,7274
866,00;-29,4280
867,00;-84,4783
868,00;-35,8542
869,00;33,7719
870,00;3,6560
871,00;-104,4639
872,00;-94,9290
873,00;-42,4882
874,00;-39,5191
875,00;47,5710
876,00;-88,9409
877,00;217,8539
878,00;-79,9619
879,00;-48,4138
880,00;58,6750
881,00;-35,0310
882,00;-36,7608
883,00;-16,8006
884,00;142,5654
885,00;-105,6909
886,00;-101,7014
887,00;-54,9133
888,00;-41,9438
889,00;-62,0522
890,00;-45,1580
891,00;58,2688
892,00;-91,5945
893,00;66,2137
894,00;-157,9624
895,00;-67,6571
896,00;-140,7131
897,00;-70,0934
898,00;-17,2745
899,00;-57,7080
900,00;-180,8074
901,00;82,2380
902,00;42,3108
903,00;-23,8799
904,00;-35,2826
905,00;3,4672
906,00;-209,3961
907,00;-143,5156
908,00;-127,5922
909,00;-118,5177
910,00;-195,6049
911,00;-49,2850
912,00;316,1672
913,00;196,7351
914,00;18,5999
915,00;-18,5348
916,00;-57,8505
917,00;-47,8172
918,00;-93,6300
919,00;-1,5570
920,00;-97,3563
921,00;-87,5883
922,00;-27,1933
923,00;-30,2312
924,00;-55,6623
925,00;18,5081
926,00;107,3023
927,00;129,3726
928,00;-44,2143
929,00;-50,3977
930,00;-135,3282
931,00;-103,2107
932,00;-87,6387
933,00;-102,9409
934,00;-13,3264
935,00;-19,0918
936,00;130,9730
937,00;66,8151
938,00;66,6290
939,00;-19,1763
940,00;-62,7511
941,00;-134,4977
942,00;-150,4473
943,00;-131,6654
944,00;-158,2632
945,00;5,5525
946,00;-88,1328
947,00;78,8412
948,00;-15,7920
949,00;-94,6984
950,00;-95,5497
951,00;125,0254
952,00;-147,9002
953,00;-106,2534
954,00;-125,7215
955,00;-28,2133
956,00;-156,7546
957,00;-97,9642
958,00;-122,6912
959,00;27,9464
960,00;-115,7424
961,00;-93,5339
962,00;-42,9163
963,00;145,4278
964,00;-39,8250
965,00;-75,4443
966,00;76,3753
967,00;177,0806
968,00;-12,4889
969,00;-92,9164
970,00;-132,6708
971,00;-52,3460
972,00;5,8586
973,00;-18,7810
974,00;-161,8275
975,00;123,3363
976,00;9,9295
977,00;-164,6003
978,00;-99,1038
979,00;-3,2698
980,00;-152,3763
981,00;-52,0638
982,00;-140,4168
983,00;-76,9281
984,00;-186,1230
985,00;-38,7568
986,00;18,1215
987,00;107,5406
988,00;69,4430
989,00;-46,8631
990,00;85,6935
991,00;-115,4504
992,00;-33,6184
993,00;-23,8053
994,00;-187,7203
995,00;-33,7037
996,00;-130,1430
997,00;-44,3946
998,00;-47,4355
999,00;-148,1325
1000,00;127,0279
1001,00;76,3276
1002,00;-58,7927
1003,00;-8,3967
1004,00;-37,8723
1005,00;-76,4492
1006,00;-108,8983
1007,00;-54,4326
1008,00;37,7861
1009,00;-47,7504
1010,00;-22,9949
1011,00;51,2750
1012,00;7,0778
1013,00;-126,0663
1014,00;162,2699
1015,00;155,9082
1016,00;-103,6407
1017,00;-111,4892
1018,00;-40,9723
1019,00;-150,8368
1020,00;-83,5360
1021,00;-57,5411
1022,00;-188,2557
1023,00;-17,6329
1024,00;-65,8735
1025,00;33,8196
1026,00;93,9586
1027,00;-34,3957
1028,00;-10,6506
1029,00;-0,4793
1030,00;-52,3290
1031,00;-103,3575
1032,00;-31,0040
1033,00;14,2061
1034,00;-142,3983
1035,00;-168,1086
1036,00;72,2180
1037,00;-100,6022
1038,00;-94,2131
1039,00;5,8922
1040,00;-95,5252
1041,00;12,7559
1042,00;-20,2597
1043,00;90,9203
1044,00;306,9841
1045,00;-32,1369
1046,00;-99,0989
1047,00;47,5772
1048,00;-12,7026
1049,00;-84,2949
1050,00;-74,9959
1051,00;-88,1108
1052,00;-37,6743
1053,00;-188,3814
1054,00;-31,8056
1055,00;-133,6327
1056,00;-116,2273
1057,00;-95,1958
1058,00;84,2401
1059,00;18,8729
1060,00;-34,4027
1061,00;-103,2648
1062,00;-49,8573
1063,00;-118,3641
1064,00;-14,6407
1065,00;-57,0530
1066,00;-19,0441
1067,00;-15,1268
1068,00;-146,3678
1069,00;-89,3271
1070,00;-76,1450
1071,00;-100,3840
1072,00;27,9778
1073,00;13,3186
1074,00;-39,1266
1075,00;-14,5665
1076,00;-70,9189
1077,00;-88,7662
1078,00;-63,0961
1079,00;-18,4365
1080,00;-139,5143
1081,00;-56,4199
1082,00;-75,1179
1083,00;-163,6416
1084,00;-23,1722
1085,00;-43,9265
1086,00;17,8540
1087,00;-71,6693
1088,00;-11,1632
1089,00;101,8683
1090,00;-116,4236
1091,00;101,8973
1092,00;-44,9884
1093,00;79,5499
1094,00;26,7440
1095,00;22,2577
1096,00;-127,9206
1097,00;-65,3720
1098,00;-91,0224
1099,00;-93,1545
1100,00;-87,5755
