M- 9.3Pa 20W 50-50
Integration time: 1000 ms
Average: 20 scans
Nr of pixels used for smoothing: 0
Data measured with spectrometer serial number: 0501039S2
Wave   ;Sample
[nm]   ;[counts]
200,00;-149,7394
201,00;3,8321
202,00;-78,8850
203,00;-167,5258
204,00;-19,1988
205,00;-107,2619
206,00;-153,2395
207,00;-71,3493
208,00;-24,4225
209,00;96,4304
210,00;-133,6102
211,00;-17,8049
212,00;-112,6735
213,00;-35,7432
214,00;-65,2403
215,00;-42,9662
216,00;-73,9091
217,00;-98,5188
218,00;-114,9634
219,00;-89,6372
220,00;345,9550
221,00;19,9499
222,00;40,8248
223,00;-159,0947
224,00;-150,2815
225,00;77,2655
226,00;-35,8290
227,00;-59,4931
228,00;107,5111
229,00;-102,7331
230,00;4,9605
231,00;-65,6861
232,00;32,7112
233,00;46,3925
234,00;-85,7072
235,00;-26,1523
236,00;-85,1612
237,00;-50,5641
238,00;19,5605
239,00;3,0189
240,00;-154,2371
241,00;-142,5271
242,00;-67,2096
243,00;-140,6809
244,00;131,7873
245,00;31,7502
246,00;-112,5514
247,00;-156,2519
248,00;11,2401
249,00;24,0206
250,00;-33,5238
251,00;118,6363
252,00;-125,1421
253,00;22,6933
254,00;-232,3059
255,00;-148,7319
256,00;-112,7582
257,00;44,7625
258,00;-51,9229
259,00;1,0359
260,00;-102,4230
261,00;-3,7349
262,00;43,3544
263,00;-131,1365
264,00;57,8524
265,00;37,5979
266,00;-18,4012
267,00;177,2247
268,00;-64,8766
269,00;115,9203
270,00;-88,3488
271,00;7,4747
272,00;-9,0255
273,00;-35,8815
274,00;-51,0057
275,00;63,0707
276,00;-28,4234
277,00;-91,9678
278,00;-73,8631
279,00;-82,4040
280,00;-73,0222
281,00;-9,8187
282,00;-7,6619
283,00;0,8343
284,00;-97,6711
285,00;-177,0454
286,00;-38,5541
287,00;-58,5189
288,00;-79,7496
289,00;-81,0547
290,00;-70,0382
291,00;-105,7981
292,00;-110,7426
293,00;-13,9187
294,00;-18,4968
295,00;-0,7049
296,00;-110,7829
297,00;-110,0766
298,00;-110,7242
299,00;-104,3733
300,00;-71,7209
301,00;35,6434
302,00;-96,3701
303,00;-78,8003
304,00;-73,1332
305,00;-97,0693
306,00;-51,7373
307,00;48,7315
308,00;28,1635
309,00;-73,2659
310,00;-130,0675
311,00;-16,6416
312,00;-45,1127
313,00;-7,9592
314,00;-45,4039
315,00;-95,0009
316,00;34,0728
317,00;-149,9762
318,00;-92,4154
319,00;17,4984
320,00;-101,1770
321,00;-24,4136
322,00;-101,5240
323,00;-159,9247
324,00;-29,6133
325,00;78,4112
326,00;-38,4276
327,00;-127,1997
328,00;-70,5208
329,00;3,7092
330,00;-69,0844
331,00;-89,7240
332,00;-0,0273
333,00;-53,7171
334,00;-30,8225
335,00;-137,1190
336,00;-82,3676
337,00;63,7396
338,00;-18,3987
339,00;-25,5832
340,00;-39,6863
341,00;-97,5793
342,00;-66,5491
343,00;4,7587
344,00;-26,5011
345,00;-83,6873
346,00;181,6597
347,00;-93,4249
348,00;-85,1853
349,00;-145,8343
350,00;-68,5441
351,00;2,4591
352,00;-15,8143
353,00;-94,3446
354,00;66,7866
355,00;-159,6002
356,00;-22,1580
357,00;-52,8747
358,00;88,3841
359,00;21,8488
360,00;-63,7400
361,00;-142,0192
362,00;-149,8472
363,00;-127,0293
364,00;-122,9701
365,00;-13,6772
366,00;-24,3975
367,00;121,2072
368,00;-111,9088
369,00;10,6160
370,00;-9,8144
371,00;-32,2578
372,00;-142,7047
373,00;-75,9456
374,00;-103,4301
375,00;40,9667
376,00;-53,0160
377,00;36,0844
378,00;-116,1581
379,00;54,2806
380,00;95,2813
381,00;-99,3125
382,00;-1,8561
383,00;-44,6886
384,00;20,3319
385,00;-34,6594
386,00;74,8010
387,00;-81,8880
388,00;-72,8914
389,00;-64,5393
390,00;51,6539
391,00;136,3874
392,00;67,1287
393,00;-107,6931
394,00;-28,4958
395,00;132,0280
396,00;63,3911
397,00;-96,9706
398,00;-42,1653
399,00;16,8150
400,00;-67,1282
401,00;-58,6434
402,00;-130,5180
403,00;-86,0790
404,00;193,8287
405,00;222,6276
406,00;120,6848
407,00;-36,3683
408,00;-43,2927
409,00;63,9146
410,00;-76,8715
411,00;40,5074
412,00;77,5595
413,00;26,2533
414,00;-37,0894
415,00;170,4629
416,00;674,1638
417,00;47,0155
418,00;318,3884
419,00;980,9581
420,00;1543,3120
421,00;-75,5585
422,00;14,2763
423,00;46,0233
424,00;101,0095
425,00;461,7993
426,00;1333,4790
427,00;652,4266
428,00;156,7648
429,00;105,3108
430,00;372,6083
431,00;181,4661
432,00;-14,1938
433,00;430,1228
434,00;217,2693
435,00;-5,7469
436,00;74,3696
437,00;230,6148
438,00;84,6707
439,00;131,6009
440,00;3,7286
441,00;-30,2822
442,00;-17,1076
443,00;138,3796
444,00;42,5786
445,00;140,0254
446,00;-11,4436
447,00;-49,7793
448,00;-91,4956
449,00;-14,5989
450,00;81,8019
451,00;574,5757
452,00;43,0991
453,00;15,4164
454,00;-7,9174
455,00;-33,3858
456,00;-43,1042
457,00;45,2884
458,00;35,4775
459,00;14,7043
460,00;-44,3763
461,00;22,2507
462,00;-74,0083
463,00;82,7072
464,00;22,3025
465,00;234,9693
466,00;86,9273
467,00;32,5894
468,00;-80,6320
469,00;41,2066
470,00;7,0052
471,00;19,4719
472,00;1,5553
473,00;77,5434
474,00;-55,2854
475,00;135,5278
476,00;86,9788
477,00;66,5437
478,00;41,1988
479,00;63,1997
480,00;103,8039
481,00;75,8576
482,00;-43,6113
483,00;29,9810
484,00;41,7871
485,00;-60,8312
486,00;-11,7925
487,00;85,6981
488,00;164,7527
489,00;143,0152
490,00;-93,5571
491,00;184,0006
492,00;66,8744
493,00;-50,6740
494,00;131,6781
495,00;121,6335
496,00;74,4034
497,00;109,2906
498,00;214,8597
499,00;117,3887
500,00;-8,7568
501,00;61,2528
502,00;-2,3689
503,00;-8,1412
504,00;26,6028
505,00;151,1343
506,00;67,2956
507,00;33,0315
508,00;21,3350
509,00;99,8092
510,00;23,3951
511,00;-78,1908
512,00;81,3093
513,00;-4,4957
514,00;62,0597
515,00;73,4835
516,00;427,2080
517,00;33,0291
518,00;125,4594
519,00;263,6681
520,00;-46,7966
521,00;177,0102
522,00;439,1713
523,00;396,6209
524,00;381,3501
525,00;750,9276
526,00;614,5673
527,00;425,7751
528,00;452,9157
529,00;287,7679
530,00;267,2715
531,00;93,0652
532,00;-3,1699
533,00;128,5922
534,00;-19,9391
535,00;30,7932
536,00;48,1266
537,00;82,9088
538,00;88,9155
539,00;-6,9574
540,00;-106,2009
541,00;-40,8790
542,00;185,2082
543,00;125,4406
544,00;352,2250
545,00;298,2258
546,00;97,8025
547,00;-20,3115
548,00;123,9471
549,00;320,1771
550,00;481,0202
551,00;113,9949
552,00;125,8267
553,00;372,7739
554,00;151,7601
555,00;459,6754
556,00;850,3401
557,00;888,6755
558,00;1336,0960
559,00;1414,6640
560,00;1601,1290
561,00;1337,8990
562,00;1024,0550
563,00;515,6066
564,00;223,7069
565,00;257,5193
566,00;79,3543
567,00;130,9376
568,00;267,6233
569,00;91,9568
570,00;95,6531
571,00;169,5866
572,00;110,0053
573,00;66,8454
574,00;340,0193
575,00;116,5147
576,00;-32,3587
577,00;75,5241
578,00;-2,8069
579,00;60,7663
580,00;186,4938
581,00;201,7376
582,00;134,8135
583,00;154,2535
584,00;167,3973
585,00;133,0071
586,00;450,1942
587,00;276,1985
588,00;358,5363
589,00;439,4033
590,00;247,5847
591,00;615,4373
592,00;246,7411
593,00;369,7527
594,00;178,9143
595,00;258,8762
596,00;419,6367
597,00;809,1706
598,00;625,7096
599,00;658,5539
600,00;485,6421
601,00;427,5975
602,00;441,4479
603,00;1161,6400
604,00;578,0914
605,00;444,6753
606,00;176,0063
607,00;-15,2988
608,00;63,5100
609,00;2,2772
610,00;128,2288
611,00;163,9057
612,00;35,6656
613,00;9,6377
614,00;16,0993
615,00;78,1153
616,00;199,1931
617,00;154,0549
618,00;287,2628
619,00;51,9806
620,00;-20,4283
621,00;208,7444
622,00;113,4421
623,00;35,7709
624,00;-150,7499
625,00;-75,4120
626,00;39,9885
627,00;139,6772
628,00;5,8862
629,00;38,5182
630,00;104,1058
631,00;109,8483
632,00;89,6576
633,00;67,6343
634,00;183,3068
635,00;395,8816
636,00;514,7023
637,00;267,1577
638,00;325,9727
639,00;236,7466
640,00;177,2048
641,00;372,3823
642,00;311,9537
643,00;115,8660
644,00;-34,0794
645,00;164,2053
646,00;92,6013
647,00;88,2051
648,00;-131,5588
649,00;128,5609
650,00;-34,1579
651,00;-37,7931
652,00;-10,4835
653,00;122,4676
654,00;78,2737
655,00;-97,3062
656,00;-70,0336
657,00;69,4825
658,00;81,2789
659,00;175,9220
660,00;178,7452
661,00;12,7237
662,00;4,3987
663,00;-6,3877
664,00;11,2631
665,00;-24,1408
666,00;108,4604
667,00;90,2101
668,00;254,0644
669,00;34,8682
670,00;319,3948
671,00;-14,9123
672,00;-19,7602
673,00;4,6675
674,00;64,3850
675,00;613,7256
676,00;212,6904
677,00;261,6415
678,00;115,9530
679,00;158,8682
680,00;146,6445
681,00;136,9223
682,00;32,0107
683,00;178,2570
684,00;197,9582
685,00;118,9775
686,00;26,9353
687,00;363,9546
688,00;6,9543
689,00;-33,6839
690,00;5,9777
691,00;-61,8924
692,00;122,9882
693,00;88,2966
694,00;153,6683
695,00;28,3364
696,00;760,0437
697,00;533,5832
698,00;116,5424
699,00;59,1932
700,00;77,6648
701,00;42,3057
702,00;-24,3290
703,00;338,1967
704,00;16,0862
705,00;64,9418
706,00;424,9035
707,00;941,8279
708,00;19,3390
709,00;120,2251
710,00;283,3956
711,00;-51,0498
712,00;53,5640
713,00;-83,1120
714,00;71,9022
715,00;144,6973
716,00;40,8119
717,00;-28,1399
718,00;-0,1078
719,00;164,6889
720,00;101,6289
721,00;172,1194
722,00;-117,1225
723,00;-1,1323
724,00;-14,9404
725,00;12,9198
726,00;72,3415
727,00;336,7669
728,00;172,3586
729,00;6,6831
730,00;-90,1963
731,00;108,6297
732,00;-55,6344
733,00;-49,8568
734,00;131,3010
735,00;142,0999
736,00;214,3882
737,00;527,8595
738,00;1309,8920
739,00;652,7611
740,00;52,9234
741,00;258,6934
742,00;203,1566
743,00;145,7502
744,00;478,7966
745,00;109,6370
746,00;70,5748
747,00;59,0948
748,00;-5,1758
749,00;52,9584
750,00;4834,1950
751,00;4007,5350
752,00;1199,3870
753,00;105,4955
754,00;33,4614
755,00;43,9359
756,00;20,5017
757,00;16,9536
758,00;-175,8853
759,00;-49,6326
760,00;186,6024
761,00;232,2468
762,00;18,9079
763,00;2374,4060
764,00;1471,5190
765,00;-21,7084
766,00;36,0171
767,00;-68,9866
768,00;-91,9060
769,00;-35,7087
770,00;-49,2850
771,00;-50,8137
772,00;820,7652
773,00;398,1066
774,00;4,9023
775,00;-76,8988
776,00;135,2405
777,00;3323,7550
778,00;1268,5110
779,00;26,1671
780,00;17,8453
781,00;-76,2194
782,00;-65,5949
783,00;52,2594
784,00;96,2293
785,00;-114,5752
786,00;-79,4944
787,00;4,1906
788,00;-9,0105
789,00;-16,2805
790,00;-40,9131
791,00;-95,3238
792,00;-76,7568
793,00;-67,7569
794,00;326,1277
795,00;685,6180
796,00;51,7926
797,00;29,7385
798,00;-29,9706
799,00;-80,9290
800,00;313,9411
801,00;761,3881
802,00;360,5664
803,00;-44,4093
804,00;-140,4466
805,00;17,2518
806,00;-135,3552
807,00;73,2757
808,00;-60,6689
809,00;-18,1254
810,00;1008,6170
811,00;2311,4550
812,00;1654,9120
813,00;-18,7348
814,00;19,8690
815,00;-70,8506
816,00;-87,6385
817,00;25,0263
818,00;-57,4384
819,00;-11,0852
820,00;-56,6433
821,00;21,1851
822,00;-32,4965
823,00;-146,2120
824,00;-77,0638
825,00;-93,6403
826,00;314,4687
827,00;86,7585
828,00;-68,4465
829,00;-59,7940
830,00;-131,8885
831,00;24,4449
832,00;-185,1891
833,00;-50,6669
834,00;-114,2472
835,00;-104,8369
836,00;-7,2017
837,00;52,5031
838,00;-6,8352
839,00;70,6579
840,00;281,9735
841,00;626,3701
842,00;875,8615
843,00;586,2339
844,00;350,1608
845,00;522,0885
846,00;-21,5454
847,00;-64,1737
848,00;14,1490
849,00;-130,0412
850,00;-131,7354
851,00;-41,5320
852,00;231,1259
853,00;-128,9752
854,00;-31,2909
855,00;-48,4144
856,00;77,7988
857,00;7,9740
858,00;-95,8368
859,00;24,7765
860,00;48,5976
861,00;-48,5273
862,00;-82,0561
863,00;-13,9218
864,00;-102,8891
865,00;-59,6228
866,00;-8,0515
867,00;-40,5945
868,00;-17,2562
869,00;42,0583
870,00;6,1229
871,00;-95,8572
872,00;-87,1417
873,00;-36,9643
874,00;-22,5974
875,00;42,1585
876,00;-68,1032
877,00;207,3871
878,00;-66,2786
879,00;-44,4801
880,00;55,4322
881,00;-28,1845
882,00;-29,9155
883,00;-17,3088
884,00;122,6495
885,00;-90,0124
886,00;-90,7238
887,00;-47,7388
888,00;-35,8013
889,00;-53,5481
890,00;-34,2263
891,00;60,7861
892,00;-86,3110
893,00;63,8439
894,00;-144,4380
895,00;-62,9868
896,00;-115,6875
897,00;-58,8154
898,00;-20,6720
899,00;-52,8178
900,00;-161,6872
901,00;85,2015
902,00;40,9240
903,00;-25,6000
904,00;-29,8880
905,00;4,1970
906,00;-190,3147
907,00;-125,4326
908,00;-122,9464
909,00;-100,8750
910,00;-179,0464
911,00;-26,5405
912,00;824,1281
913,00;332,4545
914,00;31,2445
915,00;-13,8310
916,00;-49,7023
917,00;-42,0910
918,00;-80,1908
919,00;10,6104
920,00;-70,8560
921,00;-78,5596
922,00;46,2670
923,00;29,7921
924,00;-53,4586
925,00;16,4392
926,00;130,1702
927,00;129,4688
928,00;-37,7135
929,00;-43,6418
930,00;-128,3246
931,00;-91,2501
932,00;-79,6861
933,00;-92,9631
934,00;-12,9287
935,00;-13,1029
936,00;123,4597
937,00;66,7357
938,00;62,0804
939,00;-21,0073
940,00;-65,9590
941,00;-123,9216
942,00;-132,3222
943,00;-126,3430
944,00;-156,1964
945,00;5,1986
946,00;-80,3844
947,00;67,9058
948,00;-13,9813
949,00;-90,4575
950,00;-89,7805
951,00;124,4771
952,00;-140,5373
953,00;-102,1852
954,00;-113,0763
955,00;-26,2934
956,00;-146,5146
957,00;-86,7856
958,00;-118,5164
959,00;22,0765
960,00;-105,0481
961,00;-98,8539
962,00;-45,0514
963,00;136,2198
964,00;-33,7760
965,00;-46,8703
966,00;150,5608
967,00;167,3109
968,00;-5,5976
969,00;-92,1345
970,00;-126,2700
971,00;-55,4546
972,00;2,1880
973,00;-10,4891
974,00;-161,5849
975,00;114,8653
976,00;12,7922
977,00;-146,8848
978,00;-82,0792
979,00;3,5504
980,00;-146,3945
981,00;-51,2884
982,00;-150,9871
983,00;-71,6826
984,00;-179,3340
985,00;-37,0499
986,00;15,4765
987,00;85,5659
988,00;56,1615
989,00;-48,5212
990,00;79,7627
991,00;-112,2462
992,00;-33,6899
993,00;-19,4829
994,00;-171,5831
995,00;-32,8959
996,00;-117,3335
997,00;-42,4547
998,00;-47,7101
999,00;-139,5489
1000,00;114,3447
1001,00;64,4288
1002,00;-57,5142
1003,00;-4,9291
1004,00;-34,4311
1005,00;-69,3439
1006,00;-103,9142
1007,00;-51,6063
1008,00;34,2265
1009,00;-46,9632
1010,00;-27,7362
1011,00;48,8687
1012,00;12,0651
1013,00;-122,9038
1014,00;140,0426
1015,00;139,8243
1016,00;-94,9467
1017,00;-110,7949
1018,00;-39,7860
1019,00;-146,7902
1020,00;-74,4559
1021,00;-48,8329
1022,00;-175,8478
1023,00;-23,8597
1024,00;-60,4216
1025,00;34,2419
1026,00;85,3033
1027,00;-32,6711
1028,00;-10,9330
1029,00;-1,6306
1030,00;-51,1224
1031,00;-103,1235
1032,00;-34,7847
1033,00;20,4168
1034,00;-136,3487
1035,00;-161,9333
1036,00;59,9254
1037,00;-103,1531
1038,00;-99,9272
1039,00;5,3936
1040,00;-92,8463
1041,00;12,1018
1042,00;-27,6369
1043,00;86,5426
1044,00;295,9554
1045,00;-40,5163
1046,00;-90,3698
1047,00;46,8078
1048,00;-11,5761
1049,00;-76,0260
1050,00;-72,0468
1051,00;-75,9221
1052,00;-35,4487
1053,00;-187,6170
1054,00;-32,9896
1055,00;-125,5839
1056,00;-100,0836
1057,00;-88,1882
1058,00;72,7248
1059,00;22,6868
1060,00;-34,1612
1061,00;-101,9764
1062,00;-51,2919
1063,00;-115,3566
1064,00;-9,1769
1065,00;-53,4826
1066,00;-20,9780
1067,00;-21,0546
1068,00;-140,9349
1069,00;-77,4849
1070,00;-77,0319
1071,00;-99,5872
1072,00;28,1565
1073,00;16,2437
1074,00;-37,6404
1075,00;-11,2436
1076,00;-69,7709
1077,00;-75,7224
1078,00;-58,1019
1079,00;-20,8991
1080,00;-131,3405
1081,00;-43,6673
1082,00;-66,5461
1083,00;-150,4151
1084,00;-21,9686
1085,00;-42,9024
1086,00;14,9156
1087,00;-68,0695
1088,00;-7,9991
1089,00;90,9935
1090,00;-104,0850
1091,00;89,3664
1092,00;-38,1072
1093,00;71,6913
1094,00;28,2046
1095,00;23,0522
1096,00;-118,0403
1097,00;-69,2439
1098,00;-83,7012
1099,00;-84,8910
1100,00;-78,3444
