M- 9.2Pa 40W 25-50
Integration time: 1000 ms
Average: 20 scans
Nr of pixels used for smoothing: 0
Data measured with spectrometer serial number: 0501039S2
Wave   ;Sample
[nm]   ;[counts]
200,00;-174,9914
201,00;1,0712
202,00;-88,8416
203,00;-192,7963
204,00;-23,2025
205,00;-120,8189
206,00;-180,4781
207,00;-75,6730
208,00;-27,3597
209,00;111,4294
210,00;-161,7403
211,00;-21,1396
212,00;-124,1421
213,00;-41,2282
214,00;-66,6230
215,00;-62,5985
216,00;-84,6448
217,00;-112,1559
218,00;-130,8452
219,00;-111,5905
220,00;391,6309
221,00;30,0521
222,00;53,0830
223,00;-172,8398
224,00;-174,9102
225,00;82,3911
226,00;-34,3341
227,00;-64,2428
228,00;128,2283
229,00;-123,0298
230,00;16,9625
231,00;-75,4333
232,00;43,3733
233,00;54,8372
234,00;-96,3940
235,00;-30,4662
236,00;-89,1153
237,00;-54,0406
238,00;19,7854
239,00;-0,4471
240,00;-180,3426
241,00;-165,9133
242,00;-73,8678
243,00;-159,6509
244,00;161,6082
245,00;45,6269
246,00;-130,0772
247,00;-178,1378
248,00;2,6798
249,00;31,6014
250,00;-37,6703
251,00;146,3122
252,00;-132,9873
253,00;22,2723
254,00;-261,7872
255,00;-164,9938
256,00;-129,2893
257,00;52,1818
258,00;-64,1747
259,00;9,7272
260,00;-124,7391
261,00;-2,2033
262,00;54,0216
263,00;-152,7420
264,00;75,1207
265,00;50,9160
266,00;-13,6206
267,00;198,4040
268,00;-80,8751
269,00;128,9216
270,00;-91,3466
271,00;5,2217
272,00;-61,8553
273,00;-45,4103
274,00;-3,7634
275,00;72,1170
276,00;-36,3690
277,00;-117,6248
278,00;-72,1252
279,00;-91,0809
280,00;-80,1275
281,00;-5,5561
282,00;-7,8505
283,00;-3,1420
284,00;-109,4696
285,00;-200,0857
286,00;-40,9782
287,00;-63,2234
288,00;-88,5487
289,00;-92,3298
290,00;-73,6946
291,00;-112,6470
292,00;-121,1509
293,00;-16,9732
294,00;-12,7619
295,00;6,1240
296,00;-120,0365
297,00;-124,7125
298,00;-133,1004
299,00;-111,3643
300,00;-74,0225
301,00;42,7664
302,00;-105,5596
303,00;-80,7874
304,00;-81,0510
305,00;-110,6057
306,00;-50,8264
307,00;61,1569
308,00;5,9445
309,00;-79,3147
310,00;-143,9158
311,00;-12,0048
312,00;-51,4368
313,00;-13,6277
314,00;-41,0435
315,00;-114,3422
316,00;41,2978
317,00;-178,9434
318,00;-98,0876
319,00;19,6999
320,00;-117,6450
321,00;-23,8570
322,00;-115,5764
323,00;-173,8908
324,00;-23,5371
325,00;90,0186
326,00;-38,7346
327,00;-143,6964
328,00;-73,3746
329,00;-3,3055
330,00;-76,7735
331,00;-101,8605
332,00;14,7126
333,00;-59,1785
334,00;-33,8772
335,00;-153,6836
336,00;-92,3976
337,00;82,0238
338,00;-26,7849
339,00;-27,0182
340,00;-40,5569
341,00;-115,7188
342,00;-63,1268
343,00;18,9051
344,00;-26,6430
345,00;-110,5139
346,00;201,6571
347,00;-105,5585
348,00;-88,4876
349,00;-167,4052
350,00;-76,2060
351,00;12,5989
352,00;-14,2313
353,00;-107,9095
354,00;82,9171
355,00;-186,2811
356,00;-25,3376
357,00;-57,4035
358,00;108,3676
359,00;21,6616
360,00;-69,3733
361,00;-156,3596
362,00;-163,8014
363,00;-146,8993
364,00;-146,9230
365,00;-14,1203
366,00;-27,5759
367,00;146,5339
368,00;-122,9956
369,00;12,1820
370,00;-9,1945
371,00;-21,4317
372,00;-157,9445
373,00;-86,8854
374,00;-122,2777
375,00;50,0258
376,00;-51,7786
377,00;47,8604
378,00;-126,8714
379,00;64,8908
380,00;115,7364
381,00;-97,1198
382,00;14,1184
383,00;-71,1925
384,00;23,0242
385,00;-36,5516
386,00;102,3642
387,00;-70,4491
388,00;-67,9800
389,00;-60,7033
390,00;67,7495
391,00;196,8993
392,00;95,8401
393,00;-108,7203
394,00;-26,0617
395,00;144,3776
396,00;106,9798
397,00;-85,5992
398,00;-29,9756
399,00;28,8112
400,00;-63,3005
401,00;-56,3095
402,00;-144,6744
403,00;-98,5546
404,00;117,3190
405,00;225,5280
406,00;157,7683
407,00;-9,8818
408,00;-23,4681
409,00;102,6532
410,00;-56,1137
411,00;62,7798
412,00;116,3330
413,00;38,5212
414,00;-42,5811
415,00;62,3118
416,00;436,6964
417,00;9,3569
418,00;235,6083
419,00;617,1952
420,00;983,7425
421,00;-125,3094
422,00;16,9164
423,00;59,7394
424,00;110,1746
425,00;326,4697
426,00;970,9762
427,00;477,2829
428,00;180,1537
429,00;78,8011
430,00;284,8068
431,00;207,3467
432,00;-3,9275
433,00;303,6454
434,00;164,4590
435,00;12,5033
436,00;126,7082
437,00;365,3945
438,00;129,9046
439,00;170,9354
440,00;20,3801
441,00;-11,6995
442,00;1,0059
443,00;166,5597
444,00;61,3995
445,00;168,2637
446,00;-8,9781
447,00;-49,2529
448,00;-109,1375
449,00;-11,5938
450,00;45,7289
451,00;450,4540
452,00;3,2914
453,00;5,6392
454,00;-24,0700
455,00;-51,7010
456,00;-61,5989
457,00;55,8938
458,00;26,5683
459,00;4,2966
460,00;-57,9740
461,00;34,9034
462,00;-82,6575
463,00;95,1186
464,00;43,4066
465,00;307,3589
466,00;125,9734
467,00;67,0314
468,00;-61,9437
469,00;44,7795
470,00;-35,5790
471,00;12,6740
472,00;1,5091
473,00;102,7912
474,00;-71,0110
475,00;121,6725
476,00;103,0572
477,00;56,9409
478,00;49,3539
479,00;77,5286
480,00;131,1950
481,00;104,9754
482,00;-40,9335
483,00;20,1304
484,00;35,2192
485,00;-69,5297
486,00;-15,5059
487,00;49,1107
488,00;118,3098
489,00;105,2317
490,00;-118,8623
491,00;208,2007
492,00;54,8472
493,00;-70,3450
494,00;134,4372
495,00;113,8413
496,00;99,6450
497,00;162,3362
498,00;260,6767
499,00;143,3960
500,00;0,4574
501,00;77,9237
502,00;-7,1298
503,00;-25,0571
504,00;25,8095
505,00;137,1736
506,00;16,2756
507,00;-6,4681
508,00;-11,9835
509,00;102,5428
510,00;15,0063
511,00;-109,7738
512,00;69,1130
513,00;-14,5195
514,00;63,4603
515,00;22,6201
516,00;382,2557
517,00;11,3477
518,00;69,8948
519,00;174,6646
520,00;-56,1029
521,00;188,7480
522,00;418,1474
523,00;608,0527
524,00;632,5642
525,00;1042,6330
526,00;998,1402
527,00;756,0502
528,00;676,4759
529,00;440,0329
530,00;345,5678
531,00;94,5853
532,00;-4,1118
533,00;207,6808
534,00;-22,1029
535,00;7,7453
536,00;53,6121
537,00;71,4237
538,00;86,0815
539,00;-51,7256
540,00;-150,3409
541,00;-83,0383
542,00;158,7171
543,00;137,4735
544,00;348,3370
545,00;233,6265
546,00;40,0860
547,00;-52,7755
548,00;125,2067
549,00;160,2550
550,00;358,6498
551,00;94,0611
552,00;150,9917
553,00;431,0951
554,00;221,2822
555,00;628,4335
556,00;952,0273
557,00;1211,5480
558,00;2085,2330
559,00;2262,8520
560,00;2208,9700
561,00;1887,7990
562,00;1585,6750
563,00;883,7473
564,00;273,0843
565,00;187,2900
566,00;54,1750
567,00;144,9803
568,00;253,2172
569,00;37,4101
570,00;95,8282
571,00;192,2805
572,00;121,7974
573,00;61,2349
574,00;296,1328
575,00;131,8759
576,00;-43,3604
577,00;38,8881
578,00;-24,9653
579,00;62,0626
580,00;195,0399
581,00;252,1743
582,00;187,9298
583,00;192,2643
584,00;229,3815
585,00;215,8416
586,00;560,0158
587,00;425,8710
588,00;465,9672
589,00;478,6935
590,00;355,2906
591,00;579,1107
592,00;297,9431
593,00;367,8265
594,00;226,0415
595,00;378,4589
596,00;642,9114
597,00;1201,9490
598,00;973,8598
599,00;976,8922
600,00;750,3967
601,00;668,5347
602,00;614,5860
603,00;948,5079
604,00;436,5735
605,00;425,1196
606,00;115,9369
607,00;-38,2481
608,00;45,6777
609,00;-45,9262
610,00;25,4585
611,00;123,9733
612,00;24,4248
613,00;-18,8695
614,00;-5,1062
615,00;57,0965
616,00;257,0636
617,00;182,4718
618,00;283,4923
619,00;56,3398
620,00;-8,0577
621,00;174,0512
622,00;83,7369
623,00;51,8224
624,00;-176,3279
625,00;-91,4545
626,00;48,8815
627,00;168,3991
628,00;18,9485
629,00;43,4723
630,00;74,7883
631,00;112,6009
632,00;155,0293
633,00;139,8574
634,00;306,9378
635,00;592,4690
636,00;792,1205
637,00;452,6760
638,00;506,6725
639,00;410,6948
640,00;357,2844
641,00;479,9380
642,00;362,3571
643,00;144,2918
644,00;-39,3026
645,00;216,2126
646,00;121,9127
647,00;78,6689
648,00;-167,1472
649,00;136,6710
650,00;-44,9948
651,00;-46,1011
652,00;-3,2076
653,00;127,8268
654,00;61,1783
655,00;-113,9143
656,00;-82,9244
657,00;87,5523
658,00;93,3016
659,00;199,4970
660,00;169,7485
661,00;6,1192
662,00;0,2053
663,00;-3,2080
664,00;24,6478
665,00;-24,4998
666,00;108,7802
667,00;78,5043
668,00;280,9405
669,00;66,6429
670,00;406,5375
671,00;26,4707
672,00;9,7170
673,00;35,1180
674,00;99,0786
675,00;475,3279
676,00;202,6133
677,00;328,5120
678,00;195,2262
679,00;258,4918
680,00;229,5610
681,00;222,2869
682,00;90,4597
683,00;257,3137
684,00;277,4622
685,00;170,6623
686,00;28,7219
687,00;177,7402
688,00;-46,6859
689,00;-84,1059
690,00;-0,5331
691,00;-76,1090
692,00;130,6393
693,00;59,0290
694,00;105,4834
695,00;0,9048
696,00;424,0635
697,00;316,7460
698,00;118,1514
699,00;45,8113
700,00;93,7018
701,00;47,7421
702,00;-51,9214
703,00;232,5212
704,00;-0,2148
705,00;77,3399
706,00;174,0708
707,00;562,2645
708,00;-3,9783
709,00;155,7017
710,00;309,8660
711,00;-76,7317
712,00;50,9083
713,00;-114,4001
714,00;65,2018
715,00;140,0193
716,00;49,4912
717,00;-13,9831
718,00;17,7420
719,00;192,5294
720,00;81,3542
721,00;148,4697
722,00;-133,3762
723,00;1,2997
724,00;-3,1305
725,00;26,8348
726,00;76,2758
727,00;250,1280
728,00;174,3011
729,00;6,8703
730,00;-100,8373
731,00;81,1192
732,00;-87,9563
733,00;-51,5314
734,00;148,1101
735,00;86,4773
736,00;212,8008
737,00;380,0983
738,00;834,5408
739,00;447,8410
740,00;45,6461
741,00;281,9966
742,00;205,2752
743,00;125,3620
744,00;524,7383
745,00;118,9380
746,00;69,3633
747,00;58,6020
748,00;-34,1630
749,00;-10,0131
750,00;2957,8060
751,00;2631,4850
752,00;792,2863
753,00;88,3858
754,00;26,6145
755,00;24,8778
756,00;4,4270
757,00;7,2751
758,00;-212,7419
759,00;-63,3391
760,00;215,5930
761,00;270,5016
762,00;0,5529
763,00;1477,3080
764,00;1000,3780
765,00;-64,3388
766,00;32,7696
767,00;-91,4085
768,00;-108,6321
769,00;-45,2151
770,00;-61,9538
771,00;-73,9785
772,00;460,4740
773,00;265,1901
774,00;-11,7463
775,00;-80,1319
776,00;174,2963
777,00;4873,6340
778,00;2113,8900
779,00;79,0422
780,00;40,2398
781,00;-82,0006
782,00;-71,5383
783,00;62,3396
784,00;115,2650
785,00;-126,2783
786,00;-97,4265
787,00;8,3171
788,00;-1,6266
789,00;-31,3644
790,00;-47,2471
791,00;-111,1156
792,00;-93,1775
793,00;-84,2002
794,00;239,3685
795,00;367,8365
796,00;32,4007
797,00;27,5863
798,00;-35,2184
799,00;-92,0099
800,00;264,8668
801,00;419,5361
802,00;206,3571
803,00;-64,2016
804,00;-170,8288
805,00;5,5156
806,00;-161,1362
807,00;84,1738
808,00;-76,6932
809,00;-44,9400
810,00;595,6520
811,00;1359,6080
812,00;1092,9400
813,00;-68,2141
814,00;5,7409
815,00;-80,8866
816,00;-102,5896
817,00;26,3081
818,00;-70,3455
819,00;-27,3278
820,00;-65,8550
821,00;21,2194
822,00;-39,0091
823,00;-168,7189
824,00;-83,7982
825,00;-97,5311
826,00;204,3855
827,00;15,4717
828,00;-75,8334
829,00;-64,8023
830,00;-155,7990
831,00;35,9463
832,00;-215,0093
833,00;-59,3852
834,00;-132,3584
835,00;-119,5517
836,00;-12,6944
837,00;59,6047
838,00;-14,3644
839,00;68,3685
840,00;160,8493
841,00;379,8342
842,00;526,4525
843,00;403,3641
844,00;448,6192
845,00;855,3639
846,00;-9,4610
847,00;-65,8362
848,00;11,4607
849,00;-156,1917
850,00;-162,0329
851,00;-93,4492
852,00;105,3041
853,00;-169,6020
854,00;-28,6403
855,00;-59,8208
856,00;82,2377
857,00;5,3083
858,00;-111,3509
859,00;30,4581
860,00;58,8780
861,00;-54,2513
862,00;-94,6849
863,00;-20,1257
864,00;-117,0544
865,00;-58,7400
866,00;-10,4531
867,00;-74,8562
868,00;-27,0480
869,00;52,4101
870,00;11,8983
871,00;-104,6881
872,00;-98,9136
873,00;-35,6099
874,00;-31,0112
875,00;52,9328
876,00;-86,3794
877,00;237,5621
878,00;-75,7366
879,00;-42,1353
880,00;69,9297
881,00;-34,4032
882,00;-27,4043
883,00;-14,9526
884,00;154,8282
885,00;-109,3320
886,00;-102,3759
887,00;-56,4773
888,00;-35,8962
889,00;-58,8182
890,00;-42,8585
891,00;69,3106
892,00;-91,2766
893,00;77,5170
894,00;-166,9754
895,00;-71,4675
896,00;-139,7324
897,00;-60,9365
898,00;-23,0409
899,00;-55,1310
900,00;-184,5345
901,00;98,9272
902,00;52,3777
903,00;-20,8224
904,00;-39,7498
905,00;9,7931
906,00;-217,5857
907,00;-146,8960
908,00;-140,4716
909,00;-125,9353
910,00;-209,1632
911,00;-48,7049
912,00;503,3536
913,00;272,7685
914,00;45,1024
915,00;-9,4960
916,00;-49,7844
917,00;-54,6749
918,00;-93,1252
919,00;9,1187
920,00;-97,4173
921,00;-85,0340
922,00;-2,5054
923,00;-3,4184
924,00;-55,2699
925,00;26,7065
926,00;179,5479
927,00;184,5923
928,00;-37,7995
929,00;-52,0922
930,00;-142,9255
931,00;-109,3476
932,00;-86,7181
933,00;-108,0735
934,00;-19,3776
935,00;-19,6694
936,00;133,2849
937,00;68,2463
938,00;71,4847
939,00;-15,4152
940,00;-74,3952
941,00;-147,3289
942,00;-158,0418
943,00;-136,5797
944,00;-172,4614
945,00;8,1468
946,00;-92,1998
947,00;82,4133
948,00;-6,3994
949,00;-102,2974
950,00;-105,4711
951,00;141,5523
952,00;-157,2542
953,00;-116,2064
954,00;-131,8788
955,00;-25,6071
956,00;-164,8996
957,00;-99,0256
958,00;-134,9529
959,00;24,7177
960,00;-120,7490
961,00;-105,8708
962,00;-46,7030
963,00;154,2009
964,00;-39,1286
965,00;-76,4478
966,00;111,2693
967,00;192,0654
968,00;-7,5789
969,00;-99,9889
970,00;-141,3393
971,00;-61,5035
972,00;8,6437
973,00;-10,8769
974,00;-171,6198
975,00;129,5994
976,00;15,8126
977,00;-177,2721
978,00;-103,1430
979,00;-4,3068
980,00;-162,8596
981,00;-58,7095
982,00;-144,4725
983,00;-81,4393
984,00;-201,0442
985,00;-38,2619
986,00;25,1057
987,00;106,1920
988,00;73,1215
989,00;-45,8750
990,00;49,6071
991,00;-120,1058
992,00;-38,1004
993,00;-17,6023
994,00;-203,7633
995,00;-30,5036
996,00;-133,7422
997,00;-50,8309
998,00;-53,8907
999,00;-157,8024
1000,00;136,9794
1001,00;84,7246
1002,00;-70,7482
1003,00;-12,7713
1004,00;-36,8999
1005,00;-83,6091
1006,00;-121,5583
1007,00;-56,9326
1008,00;44,5363
1009,00;-53,1687
1010,00;-18,4704
1011,00;58,9187
1012,00;10,7453
1013,00;-134,2392
1014,00;164,6011
1015,00;162,4995
1016,00;-114,4763
1017,00;-125,2856
1018,00;-44,8687
1019,00;-160,0431
1020,00;-91,3407
1021,00;-49,8011
1022,00;-202,8773
1023,00;-19,9238
1024,00;-68,3854
1025,00;39,2669
1026,00;105,6021
1027,00;-33,8183
1028,00;-11,5431
1029,00;9,7412
1030,00;-56,7209
1031,00;-115,7115
1032,00;-40,0824
1033,00;21,3340
1034,00;-157,7102
1035,00;-172,5397
1036,00;86,4410
1037,00;-108,5223
1038,00;-118,3853
1039,00;7,2445
1040,00;-109,1513
1041,00;17,1794
1042,00;-26,5723
1043,00;97,6091
1044,00;329,7936
1045,00;-37,3611
1046,00;-109,4936
1047,00;57,5999
1048,00;-11,0499
1049,00;-86,1074
1050,00;-86,4747
1051,00;-90,1613
1052,00;-36,8030
1053,00;-206,1778
1054,00;-33,1841
1055,00;-141,5369
1056,00;-122,6567
1057,00;-101,6612
1058,00;91,0494
1059,00;18,4601
1060,00;-38,4147
1061,00;-105,1810
1062,00;-52,9103
1063,00;-127,6887
1064,00;-2,6913
1065,00;-59,5168
1066,00;-17,2571
1067,00;-19,0656
1068,00;-158,1983
1069,00;-97,5853
1070,00;-75,2329
1071,00;-107,8026
1072,00;34,5169
1073,00;18,9295
1074,00;-44,7838
1075,00;-13,8383
1076,00;-84,5325
1077,00;-93,7086
1078,00;-64,6153
1079,00;-18,7039
1080,00;-147,9055
1081,00;-57,9065
1082,00;-79,3319
1083,00;-178,2587
1084,00;-20,0646
1085,00;-41,5044
1086,00;25,8990
1087,00;-75,3482
1088,00;-13,6452
1089,00;105,2626
1090,00;-120,5384
1091,00;108,8489
1092,00;-61,5327
1093,00;85,2988
1094,00;30,2327
1095,00;27,5996
1096,00;-133,6020
1097,00;-81,7673
1098,00;-104,8353
1099,00;-94,3923
1100,00;-88,9914
