M- 9.3Pa 15W 50-50
Integration time: 1000 ms
Average: 20 scans
Nr of pixels used for smoothing: 0
Data measured with spectrometer serial number: 0501039S2
Wave   ;Sample
[nm]   ;[counts]
200,00;-149,1382
201,00;2,3725
202,00;-84,7729
203,00;-172,8013
204,00;-13,8300
205,00;-101,6176
206,00;-152,2792
207,00;-67,2723
208,00;-23,3667
209,00;90,5583
210,00;-137,0868
211,00;-17,9245
212,00;-111,6419
213,00;-35,3933
214,00;-63,0794
215,00;-52,6603
216,00;-77,3594
217,00;-93,4939
218,00;-119,4883
219,00;-98,4316
220,00;340,1276
221,00;20,9134
222,00;49,9120
223,00;-151,4570
224,00;-154,4083
225,00;73,0429
226,00;-34,2865
227,00;-56,2077
228,00;111,0801
229,00;-105,3648
230,00;20,2174
231,00;-65,4075
232,00;35,1432
233,00;48,5703
234,00;-85,9369
235,00;-26,6631
236,00;-88,3159
237,00;-46,7588
238,00;9,0634
239,00;-2,3926
240,00;-158,1304
241,00;-147,2443
242,00;-74,1395
243,00;-141,4103
244,00;135,7443
245,00;38,5964
246,00;-117,2510
247,00;-155,5704
248,00;5,9824
249,00;26,9992
250,00;-22,3440
251,00;125,3963
252,00;-118,2790
253,00;23,5343
254,00;-227,6380
255,00;-147,5315
256,00;-113,0173
257,00;44,2552
258,00;-55,8692
259,00;8,9180
260,00;-103,4399
261,00;1,0650
262,00;48,3140
263,00;-130,1232
264,00;59,8167
265,00;41,1768
266,00;-9,4281
267,00;175,7247
268,00;-69,1006
269,00;111,2371
270,00;-84,1215
271,00;1,2888
272,00;-9,0759
273,00;-36,4894
274,00;-44,2048
275,00;72,2454
276,00;-24,7656
277,00;-98,4718
278,00;-67,2443
279,00;-77,8362
280,00;-72,6903
281,00;-12,1449
282,00;-9,8050
283,00;3,4631
284,00;-97,8511
285,00;-176,1486
286,00;-34,6065
287,00;-61,8423
288,00;-80,4935
289,00;-79,8503
290,00;-67,6418
291,00;-104,0695
292,00;-107,4765
293,00;-13,9232
294,00;-12,7835
295,00;2,8750
296,00;-104,2419
297,00;-102,1064
298,00;-115,2097
299,00;-102,7905
300,00;-65,7149
301,00;35,5726
302,00;-94,1224
303,00;-71,1551
304,00;-70,8076
305,00;-96,2528
306,00;-49,3785
307,00;58,3186
308,00;5,2355
309,00;-69,1464
310,00;-122,5356
311,00;-16,4626
312,00;-39,9880
313,00;-7,1069
314,00;-40,8019
315,00;-99,8518
316,00;31,6687
317,00;-154,6340
318,00;-91,1482
319,00;16,4714
320,00;-97,7516
321,00;-24,1997
322,00;-96,4376
323,00;-159,0599
324,00;-28,3667
325,00;76,2101
326,00;-39,4917
327,00;-126,1823
328,00;-75,4035
329,00;-3,5792
330,00;-73,9246
331,00;-90,3395
332,00;12,1169
333,00;-55,2282
334,00;-31,1948
335,00;-138,7000
336,00;-78,9017
337,00;70,4254
338,00;-21,6543
339,00;-31,8323
340,00;-33,6309
341,00;-103,7513
342,00;-58,7452
343,00;14,5271
344,00;-25,3750
345,00;-94,3924
346,00;181,9641
347,00;-89,2487
348,00;-77,9809
349,00;-145,6651
350,00;-66,1998
351,00;-0,8800
352,00;-21,1703
353,00;-90,1860
354,00;72,4307
355,00;-157,1992
356,00;-21,6636
357,00;-50,3242
358,00;90,0269
359,00;22,7188
360,00;-63,8088
361,00;-132,7770
362,00;-144,1209
363,00;-131,3208
364,00;-128,5056
365,00;-17,4908
366,00;-20,7497
367,00;128,3855
368,00;-107,3185
369,00;14,7353
370,00;-14,4559
371,00;-22,7700
372,00;-144,9171
373,00;-79,1092
374,00;-102,3776
375,00;39,0108
376,00;-51,3724
377,00;34,5058
378,00;-118,3976
379,00;48,8853
380,00;100,0562
381,00;-87,6600
382,00;4,5664
383,00;-55,4096
384,00;11,7889
385,00;-34,5595
386,00;75,2507
387,00;-85,1700
388,00;-75,5178
389,00;-70,2239
390,00;36,6062
391,00;140,8202
392,00;64,2892
393,00;-117,2697
394,00;-46,4368
395,00;106,1713
396,00;64,6228
397,00;-106,8058
398,00;-48,7256
399,00;3,5089
400,00;-75,6786
401,00;-57,9130
402,00;-134,2349
403,00;-94,7660
404,00;175,2909
405,00;207,0912
406,00;111,1490
407,00;-51,2723
408,00;-60,0542
409,00;47,4883
410,00;-82,4502
411,00;29,2111
412,00;65,9885
413,00;9,0298
414,00;-52,7663
415,00;145,0076
416,00;610,9511
417,00;31,3285
418,00;284,3719
419,00;880,3404
420,00;1378,8940
421,00;-92,2552
422,00;-0,2643
423,00;32,9316
424,00;76,6918
425,00;423,9147
426,00;1211,9460
427,00;581,3304
428,00;133,7269
429,00;90,4183
430,00;339,6738
431,00;159,8361
432,00;-34,0185
433,00;374,3782
434,00;177,2804
435,00;-50,8558
436,00;45,4201
437,00;187,2335
438,00;70,4553
439,00;117,1930
440,00;-13,1594
441,00;-52,9884
442,00;-37,4248
443,00;125,9691
444,00;33,5238
445,00;140,3180
446,00;-21,7686
447,00;-62,3372
448,00;-108,5367
449,00;-28,0611
450,00;61,6253
451,00;519,0812
452,00;22,5255
453,00;2,0245
454,00;-28,3837
455,00;-43,3871
456,00;-56,8322
457,00;40,5515
458,00;18,0323
459,00;-21,4063
460,00;-67,9607
461,00;-6,2547
462,00;-87,0279
463,00;68,1752
464,00;0,4701
465,00;218,9578
466,00;69,0175
467,00;14,7091
468,00;-99,0970
469,00;13,9464
470,00;-25,0543
471,00;3,4153
472,00;-25,4679
473,00;50,4935
474,00;-80,8302
475,00;118,1325
476,00;59,3335
477,00;30,0988
478,00;27,6125
479,00;46,9221
480,00;77,1458
481,00;54,1119
482,00;-59,6591
483,00;14,1118
484,00;17,7438
485,00;-75,3401
486,00;-20,2117
487,00;49,8294
488,00;125,0219
489,00;118,9827
490,00;-113,4617
491,00;179,5654
492,00;52,4648
493,00;-68,5174
494,00;113,8770
495,00;108,6220
496,00;53,6112
497,00;70,4648
498,00;195,1958
499,00;97,3427
500,00;-25,7362
501,00;50,6903
502,00;-25,6338
503,00;-15,5980
504,00;16,4474
505,00;125,1992
506,00;41,2359
507,00;5,2551
508,00;0,5450
509,00;77,1818
510,00;6,9205
511,00;-106,1116
512,00;64,7065
513,00;-21,6221
514,00;42,6992
515,00;37,4963
516,00;386,2999
517,00;9,8850
518,00;94,2100
519,00;205,1036
520,00;-71,4581
521,00;141,9341
522,00;348,9497
523,00;316,6386
524,00;285,8686
525,00;599,4755
526,00;490,5429
527,00;335,5821
528,00;376,4259
529,00;221,4865
530,00;226,8430
531,00;64,2049
532,00;-32,4636
533,00;79,1727
534,00;-49,5977
535,00;-0,1051
536,00;24,8110
537,00;55,7075
538,00;63,7423
539,00;-40,9221
540,00;-138,8824
541,00;-63,3685
542,00;151,5596
543,00;94,8369
544,00;304,2122
545,00;255,4105
546,00;60,3901
547,00;-42,5399
548,00;104,1026
549,00;250,7795
550,00;414,7668
551,00;71,5344
552,00;90,8578
553,00;328,9500
554,00;80,9803
555,00;362,4702
556,00;698,5708
557,00;717,1042
558,00;1083,8250
559,00;1134,4510
560,00;1330,1210
561,00;1114,5890
562,00;842,8714
563,00;391,4437
564,00;151,7194
565,00;199,6485
566,00;35,8469
567,00;103,7200
568,00;236,0826
569,00;49,8877
570,00;64,6015
571,00;150,7596
572,00;80,1030
573,00;40,6577
574,00;287,2850
575,00;89,6476
576,00;-55,4782
577,00;41,9573
578,00;-36,4709
579,00;22,6420
580,00;149,0172
581,00;176,4489
582,00;100,0924
583,00;98,7437
584,00;116,7149
585,00;93,5557
586,00;394,5980
587,00;201,0430
588,00;282,4916
589,00;366,9678
590,00;199,9372
591,00;521,3775
592,00;188,0449
593,00;301,0822
594,00;118,9585
595,00;197,1212
596,00;327,0317
597,00;675,8080
598,00;487,3964
599,00;541,5739
600,00;367,1128
601,00;325,6729
602,00;366,0066
603,00;1025,0880
604,00;509,9606
605,00;408,2462
606,00;147,4651
607,00;-46,0305
608,00;48,9606
609,00;-28,2383
610,00;88,6236
611,00;126,6399
612,00;11,9407
613,00;-14,8279
614,00;-0,9216
615,00;49,1758
616,00;141,8290
617,00;91,6950
618,00;246,0317
619,00;22,8377
620,00;-40,9271
621,00;167,6711
622,00;74,5716
623,00;14,6069
624,00;-170,8312
625,00;-95,9125
626,00;20,2175
627,00;125,2691
628,00;-13,9757
629,00;14,2333
630,00;63,8840
631,00;71,3390
632,00;63,3622
633,00;30,0164
634,00;134,9012
635,00;318,5840
636,00;431,7138
637,00;184,5139
638,00;254,5415
639,00;168,5223
640,00;121,3148
641,00;314,5997
642,00;262,9700
643,00;93,2799
644,00;-63,3102
645,00;127,6729
646,00;57,4478
647,00;63,6005
648,00;-148,1635
649,00;108,3043
650,00;-50,4389
651,00;-57,3915
652,00;-22,4330
653,00;97,2775
654,00;54,6237
655,00;-110,1950
656,00;-82,0430
657,00;59,9195
658,00;67,9742
659,00;150,1414
660,00;153,7599
661,00;-6,4235
662,00;-19,5222
663,00;-20,8775
664,00;-7,7066
665,00;-44,5153
666,00;83,5393
667,00;59,6681
668,00;236,1415
669,00;3,2377
670,00;294,5304
671,00;-39,7978
672,00;-40,5578
673,00;-20,4474
674,00;33,7269
675,00;530,0402
676,00;164,0128
677,00;210,7761
678,00;69,0774
679,00;108,9953
680,00;109,9948
681,00;109,2490
682,00;-4,1244
683,00;151,9591
684,00;170,0967
685,00;99,0720
686,00;7,8036
687,00;305,4427
688,00;-10,3316
689,00;-56,6891
690,00;-11,1356
691,00;-69,8883
692,00;109,0776
693,00;70,4760
694,00;128,5155
695,00;13,5692
696,00;667,1898
697,00;464,9913
698,00;101,9128
699,00;37,1891
700,00;55,9618
701,00;30,7232
702,00;-40,8190
703,00;299,6052
704,00;-1,6308
705,00;47,9598
706,00;356,7226
707,00;852,9006
708,00;4,9987
709,00;98,0275
710,00;264,6016
711,00;-70,9659
712,00;38,0870
713,00;-107,4072
714,00;55,6047
715,00;119,0805
716,00;15,1181
717,00;-40,6403
718,00;-19,1195
719,00;142,0903
720,00;78,9585
721,00;143,1930
722,00;-137,2659
723,00;-16,0488
724,00;-25,7373
725,00;-3,8658
726,00;43,4614
727,00;274,5791
728,00;150,7325
729,00;-15,5908
730,00;-105,5340
731,00;86,4421
732,00;-75,9982
733,00;-58,7302
734,00;115,1163
735,00;121,4747
736,00;194,9937
737,00;468,9483
738,00;1176,4290
739,00;593,4570
740,00;29,9468
741,00;262,1327
742,00;190,6195
743,00;129,5801
744,00;472,2193
745,00;97,9596
746,00;57,2185
747,00;45,8643
748,00;-20,6681
749,00;37,0659
750,00;4368,3140
751,00;3659,2000
752,00;1086,6580
753,00;93,4561
754,00;23,0268
755,00;26,0293
756,00;10,6362
757,00;8,6281
758,00;-186,4137
759,00;-60,2378
760,00;176,0265
761,00;224,7562
762,00;6,2631
763,00;2157,7430
764,00;1329,7940
765,00;-41,8784
766,00;29,8495
767,00;-74,6413
768,00;-98,9766
769,00;-42,7619
770,00;-59,3042
771,00;-63,6991
772,00;709,4353
773,00;361,4143
774,00;-9,3737
775,00;-84,7968
776,00;116,6861
777,00;2878,8840
778,00;1094,4920
779,00;7,4947
780,00;16,3243
781,00;-78,3248
782,00;-75,1417
783,00;43,1713
784,00;85,1475
785,00;-117,4586
786,00;-88,7135
787,00;2,1689
788,00;-13,2113
789,00;-23,4441
790,00;-44,9762
791,00;-97,6696
792,00;-87,8328
793,00;-71,8898
794,00;297,9752
795,00;610,2756
796,00;41,6958
797,00;26,1009
798,00;-31,2949
799,00;-85,2262
800,00;288,3481
801,00;671,7782
802,00;324,2116
803,00;-54,7138
804,00;-147,0058
805,00;11,9644
806,00;-140,6899
807,00;75,8064
808,00;-59,2293
809,00;-28,9070
810,00;898,5125
811,00;2087,9500
812,00;1506,2550
813,00;-30,7395
814,00;9,7058
815,00;-68,8675
816,00;-86,4130
817,00;24,1462
818,00;-66,6842
819,00;-18,0505
820,00;-62,0259
821,00;18,3026
822,00;-34,6426
823,00;-151,0270
824,00;-70,8809
825,00;-96,3606
826,00;278,3987
827,00;66,4066
828,00;-65,1955
829,00;-60,8521
830,00;-134,4589
831,00;26,7930
832,00;-186,8711
833,00;-52,6057
834,00;-106,9459
835,00;-114,6991
836,00;-5,5921
837,00;44,6664
838,00;-17,0303
839,00;69,6316
840,00;254,1904
841,00;558,2017
842,00;790,8882
843,00;545,9594
844,00;290,6479
845,00;444,0351
846,00;-27,8061
847,00;-65,1604
848,00;1,9927
849,00;-140,4890
850,00;-136,6457
851,00;-50,9333
852,00;201,3933
853,00;-141,8318
854,00;-25,9236
855,00;-47,0943
856,00;77,3786
857,00;5,6865
858,00;-98,9464
859,00;21,0099
860,00;48,6140
861,00;-49,7433
862,00;-84,2156
863,00;-18,0071
864,00;-111,1717
865,00;-57,2230
866,00;-6,6362
867,00;-48,1017
868,00;-18,2726
869,00;36,3305
870,00;15,0425
871,00;-101,0355
872,00;-85,7243
873,00;-35,7237
874,00;-37,1449
875,00;46,4320
876,00;-68,8426
877,00;207,5342
878,00;-67,4770
879,00;-40,4179
880,00;58,4096
881,00;-32,2204
882,00;-31,3167
883,00;-18,0397
884,00;135,8123
885,00;-91,8666
886,00;-94,1448
887,00;-48,3342
888,00;-42,1990
889,00;-56,5735
890,00;-42,6641
891,00;58,7495
892,00;-80,3680
893,00;61,3913
894,00;-146,7052
895,00;-62,3111
896,00;-122,5477
897,00;-51,5255
898,00;-21,8035
899,00;-50,7745
900,00;-164,3788
901,00;83,0283
902,00;44,3999
903,00;-25,7973
904,00;-32,7447
905,00;4,1055
906,00;-192,4966
907,00;-122,1499
908,00;-119,9422
909,00;-104,5732
910,00;-184,6012
911,00;-27,8574
912,00;744,9566
913,00;318,9056
914,00;28,9452
915,00;-11,9769
916,00;-52,0964
917,00;-41,4500
918,00;-79,6530
919,00;1,2813
920,00;-80,2231
921,00;-71,9117
922,00;34,0650
923,00;26,4287
924,00;-53,6177
925,00;21,9164
926,00;123,9850
927,00;127,2508
928,00;-39,2519
929,00;-47,0907
930,00;-114,4481
931,00;-95,3120
932,00;-78,6029
933,00;-97,3400
934,00;-15,1144
935,00;-15,1646
936,00;119,6593
937,00;62,3224
938,00;63,4824
939,00;-18,9969
940,00;-65,4105
941,00;-123,6873
942,00;-135,5684
943,00;-122,1436
944,00;-148,0451
945,00;2,9898
946,00;-80,6687
947,00;72,5717
948,00;-15,6083
949,00;-94,9333
950,00;-94,0777
951,00;125,5398
952,00;-139,4350
953,00;-101,5539
954,00;-114,3723
955,00;-26,1436
956,00;-144,8090
957,00;-88,9958
958,00;-120,1996
959,00;26,9619
960,00;-102,5778
961,00;-100,6280
962,00;-53,8528
963,00;142,6199
964,00;-30,0490
965,00;-46,6900
966,00;139,0763
967,00;179,1399
968,00;-0,6067
969,00;-86,9199
970,00;-123,8049
971,00;-53,2259
972,00;13,3238
973,00;-11,9623
974,00;-156,6892
975,00;114,0957
976,00;10,4739
977,00;-149,4080
978,00;-86,0380
979,00;3,4637
980,00;-139,4339
981,00;-51,6945
982,00;-150,3645
983,00;-66,5031
984,00;-179,6014
985,00;-36,8083
986,00;22,8545
987,00;95,0839
988,00;59,6016
989,00;-51,1645
990,00;90,1892
991,00;-108,3167
992,00;-31,8057
993,00;-21,2841
994,00;-171,6661
995,00;-28,6947
996,00;-116,9132
997,00;-47,9287
998,00;-47,2307
999,00;-139,8572
1000,00;124,0971
1001,00;73,6457
1002,00;-63,9409
1003,00;-6,3849
1004,00;-33,2523
1005,00;-69,5431
1006,00;-104,6014
1007,00;-48,8833
1008,00;45,2610
1009,00;-43,4570
1010,00;-19,3878
1011,00;55,0125
1012,00;8,9658
1013,00;-122,2851
1014,00;138,9285
1015,00;137,8223
1016,00;-96,7146
1017,00;-106,0601
1018,00;-37,2064
1019,00;-146,7793
1020,00;-78,2401
1021,00;-49,1554
1022,00;-171,5507
1023,00;-16,8119
1024,00;-59,7798
1025,00;34,4863
1026,00;82,3086
1027,00;-31,8686
1028,00;-16,3542
1029,00;2,0523
1030,00;-52,0507
1031,00;-96,2823
1032,00;-29,8354
1033,00;18,3485
1034,00;-135,3091
1035,00;-157,1762
1036,00;73,9450
1037,00;-100,9105
1038,00;-105,3292
1039,00;10,3559
1040,00;-93,7256
1041,00;9,6011
1042,00;-28,1691
1043,00;84,1277
1044,00;287,8742
1045,00;-37,3229
1046,00;-93,2180
1047,00;49,8372
1048,00;-11,7228
1049,00;-73,3286
1050,00;-74,1965
1051,00;-76,7454
1052,00;-27,9694
1053,00;-175,4622
1054,00;-32,5658
1055,00;-126,5672
1056,00;-106,3327
1057,00;-95,8637
1058,00;80,2928
1059,00;17,6020
1060,00;-37,0975
1061,00;-100,6703
1062,00;-53,2791
1063,00;-111,1930
1064,00;-10,4760
1065,00;-51,8985
1066,00;-17,0192
1067,00;-20,7139
1068,00;-143,1466
1069,00;-80,9634
1070,00;-68,8374
1071,00;-93,4474
1072,00;28,4923
1073,00;20,1089
1074,00;-40,5319
1075,00;-20,1085
1076,00;-68,6820
1077,00;-79,3029
1078,00;-54,4121
1079,00;-18,2948
1080,00;-131,1136
1081,00;-53,5044
1082,00;-67,3390
1083,00;-156,6116
1084,00;-14,4753
1085,00;-39,2356
1086,00;25,1067
1087,00;-61,1422
1088,00;-9,4941
1089,00;92,7062
1090,00;-108,2001
1091,00;85,7408
1092,00;-43,5685
1093,00;70,1344
1094,00;27,3777
1095,00;24,6321
1096,00;-113,4916
1097,00;-68,4882
1098,00;-87,4080
1099,00;-82,4214
1100,00;-73,0394
